Crank_Angle_(deg)	MFB_(%)
0.000000	0.000000
0.140140	0.000015
0.280280	0.000040
0.420420	0.000069
0.560561	0.000089
0.700701	0.000105
0.840841	0.000120
0.980981	0.000138
1.121121	0.000157
1.261261	0.000177
1.401401	0.000201
1.541542	0.000224
1.681682	0.000251
1.821822	0.000280
1.961962	0.000312
2.102102	0.000344
2.242242	0.000378
2.382382	0.000417
2.522523	0.000455
2.662663	0.000495
2.802803	0.000545
2.942943	0.000599
3.083083	0.000657
3.223223	0.000716
3.363363	0.000777
3.503504	0.000849
3.643644	0.000920
3.783784	0.000996
3.923924	0.001075
4.064064	0.001160
4.204204	0.001257
4.344344	0.001360
4.484484	0.001463
4.624625	0.001576
4.764765	0.001705
4.904905	0.001836
5.045045	0.001972
5.185185	0.002125
5.325325	0.002281
5.465465	0.002450
5.605606	0.002632
5.745746	0.002823
5.885886	0.003027
6.026026	0.003247
6.166166	0.003482
6.306306	0.003729
6.446446	0.003995
6.586587	0.004272
6.726727	0.004571
6.866867	0.004891
7.007007	0.005233
7.147147	0.005593
7.287287	0.005982
7.427427	0.006393
7.567568	0.006841
7.707708	0.007311
7.847848	0.007823
7.987988	0.008374
8.128128	0.008954
8.268268	0.009585
8.408408	0.010244
8.548549	0.010959
8.688689	0.011715
8.828829	0.012520
8.968969	0.013368
9.109109	0.014281
9.249249	0.015243
9.389389	0.016267
9.529530	0.017348
9.669670	0.018558
9.809810	0.019772
9.949950	0.021066
10.090090	0.022424
10.230230	0.023850
10.370370	0.025336
10.510511	0.026892
10.650651	0.028514
10.790791	0.030206
10.930931	0.031995
11.071071	0.033853
11.211211	0.035886
11.351351	0.037799
11.491491	0.039823
11.631632	0.041945
11.771772	0.044308
11.911912	0.046779
12.052052	0.049202
12.192192	0.051635
12.332332	0.054206
12.472472	0.056943
12.612613	0.059820
12.752753	0.062536
12.892893	0.065558
13.033033	0.068629
13.173173	0.071835
13.313313	0.074778
13.453453	0.078184
13.593594	0.081493
13.733734	0.084852
13.873874	0.088189
14.014014	0.091552
14.154154	0.095095
14.294294	0.098584
14.434434	0.101971
14.574575	0.105755
14.714715	0.109453
14.854855	0.113115
14.994995	0.116940
15.135135	0.120786
15.275275	0.124650
15.415415	0.128402
15.555556	0.132501
15.695696	0.136571
15.835836	0.140787
15.975976	0.144956
16.116116	0.149212
16.256256	0.153619
16.396396	0.157953
16.536537	0.162274
16.676677	0.166612
16.816817	0.171135
16.956957	0.175556
17.097097	0.179938
17.237237	0.184611
17.377377	0.189171
17.517518	0.193764
17.657658	0.198324
17.797798	0.202862
17.937938	0.207495
18.078078	0.212123
18.218218	0.216757
18.358358	0.221470
18.498498	0.226098
18.638639	0.230965
18.778779	0.235950
18.918919	0.240612
19.059059	0.245598
19.199199	0.250633
19.339339	0.255520
19.479479	0.260542
19.619620	0.265691
19.759760	0.270919
19.899900	0.276213
20.040040	0.281430
20.180180	0.286817
20.320320	0.292154
20.460460	0.297443
20.600601	0.302630
20.740741	0.308077
20.880881	0.313524
21.021021	0.319024
21.161161	0.324622
21.301301	0.330044
21.441441	0.335667
21.581582	0.341295
21.721722	0.346793
21.861862	0.352319
22.002002	0.357684
22.142142	0.363212
22.282282	0.368708
22.422422	0.374258
22.562563	0.380066
22.702703	0.385887
22.842843	0.391525
22.982983	0.397038
23.123123	0.402496
23.263263	0.408301
23.403403	0.413942
23.543544	0.419332
23.683684	0.424785
23.823824	0.430331
23.963964	0.435919
24.104104	0.441600
24.244244	0.446916
24.384384	0.452447
24.524525	0.457985
24.664665	0.463594
24.804805	0.469103
24.944945	0.474773
25.085085	0.480358
25.225225	0.485763
25.365365	0.491213
25.505506	0.496591
25.645646	0.501936
25.785786	0.507359
25.925926	0.512536
26.066066	0.517518
26.206206	0.522444
26.346346	0.527376
26.486486	0.532378
26.626627	0.537189
26.766767	0.541924
26.906907	0.546521
27.047047	0.551156
27.187187	0.555773
27.327327	0.560356
27.467467	0.564904
27.607608	0.569401
27.747748	0.573842
27.887888	0.578210
28.028028	0.582509
28.168168	0.586816
28.308308	0.590861
28.448448	0.595065
28.588589	0.599148
28.728729	0.603255
28.868869	0.607235
29.009009	0.611211
29.149149	0.615115
29.289289	0.618934
29.429429	0.622750
29.569570	0.626610
29.709710	0.630422
29.849850	0.634242
29.989990	0.638003
30.130130	0.641638
30.270270	0.645280
30.410410	0.648936
30.550551	0.652454
30.690691	0.656094
30.830831	0.659665
30.970971	0.663267
31.111111	0.666818
31.251251	0.670292
31.391391	0.673704
31.531532	0.677092
31.671672	0.680356
31.811812	0.683775
31.951952	0.687043
32.092092	0.690304
32.232232	0.693581
32.372372	0.696624
32.512513	0.699807
32.652653	0.703053
32.792793	0.706064
32.932933	0.709207
33.073073	0.712259
33.213213	0.715267
33.353353	0.718070
33.493493	0.720933
33.633634	0.723958
33.773774	0.726874
33.913914	0.729697
34.054054	0.732509
34.194194	0.735125
34.334334	0.737755
34.474474	0.740501
34.614615	0.743197
34.754755	0.745952
34.894895	0.748581
35.035035	0.751239
35.175175	0.753836
35.315315	0.756241
35.455455	0.758636
35.595596	0.761065
35.735736	0.763612
35.875876	0.766010
36.016016	0.768261
36.156156	0.770520
36.296296	0.772856
36.436436	0.775129
36.576577	0.777467
36.716717	0.779718
36.856857	0.781857
36.996997	0.784238
37.137137	0.786484
37.277277	0.788677
37.417417	0.790959
37.557558	0.793129
37.697698	0.795223
37.837838	0.797276
37.977978	0.799469
38.118118	0.801378
38.258258	0.803252
38.398398	0.805360
38.538539	0.807419
38.678679	0.809473
38.818819	0.811536
38.958959	0.813579
39.099099	0.815633
39.239239	0.817685
39.379379	0.819589
39.519520	0.821482
39.659660	0.823388
39.799800	0.825298
39.939940	0.827170
40.080080	0.828933
40.220220	0.830749
40.360360	0.832583
40.500501	0.834432
40.640641	0.836229
40.780781	0.838040
40.920921	0.839822
41.061061	0.841569
41.201201	0.843288
41.341341	0.845003
41.481481	0.846714
41.621622	0.848484
41.761762	0.850206
41.901902	0.851909
42.042042	0.853587
42.182182	0.855288
42.322322	0.856989
42.462462	0.858629
42.602603	0.860314
42.742743	0.861937
42.882883	0.863582
43.023023	0.865212
43.163163	0.866821
43.303303	0.868356
43.443443	0.869989
43.583584	0.871618
43.723724	0.873258
43.863864	0.874843
44.004004	0.876429
44.144144	0.877961
44.284284	0.879572
44.424424	0.881173
44.564565	0.882773
44.704705	0.884368
44.844845	0.885915
44.984985	0.887464
45.125125	0.889076
45.265265	0.890592
45.405405	0.892173
45.545546	0.893723
45.685686	0.895309
45.825826	0.896847
45.965966	0.898415
46.106106	0.899951
46.246246	0.901480
46.386386	0.902885
46.526527	0.904491
46.666667	0.905908
46.806807	0.907321
46.946947	0.908879
47.087087	0.910389
47.227227	0.911745
47.367367	0.913303
47.507508	0.914793
47.647648	0.916188
47.787788	0.917617
47.927928	0.919062
48.068068	0.920457
48.208208	0.921889
48.348348	0.923193
48.488488	0.924604
48.628629	0.925936
48.768769	0.927302
48.908909	0.928628
49.049049	0.929917
49.189189	0.931185
49.329329	0.932496
49.469469	0.933763
49.609610	0.934989
49.749750	0.936206
49.889890	0.937382
50.030030	0.938564
50.170170	0.939780
50.310310	0.941003
50.450450	0.942131
50.590591	0.943286
50.730731	0.944363
50.870871	0.945515
51.011011	0.946541
51.151151	0.947694
51.291291	0.948663
51.431431	0.949717
51.571572	0.950738
51.711712	0.951686
51.851852	0.952649
51.991992	0.953619
52.132132	0.954530
52.272272	0.955421
52.412412	0.956336
52.552553	0.957195
52.692693	0.958016
52.832833	0.958823
52.972973	0.959632
53.113113	0.960400
53.253253	0.961170
53.393393	0.961926
53.533534	0.962579
53.673674	0.963295
53.813814	0.963972
53.953954	0.964621
54.094094	0.965272
54.234234	0.965924
54.374374	0.966512
54.514515	0.967165
54.654655	0.967765
54.794795	0.968325
54.934935	0.968907
55.075075	0.969487
55.215215	0.970050
55.355355	0.970569
55.495495	0.971097
55.635636	0.971624
55.775776	0.972116
55.915916	0.972631
56.056056	0.973080
56.196196	0.973564
56.336336	0.974021
56.476476	0.974479
56.616617	0.974910
56.756757	0.975316
56.896897	0.975735
57.037037	0.976140
57.177177	0.976546
57.317317	0.976934
57.457457	0.977300
57.597598	0.977698
57.737738	0.978075
57.877878	0.978431
58.018018	0.978773
58.158158	0.979108
58.298298	0.979462
58.438438	0.979801
58.578579	0.980114
58.718719	0.980440
58.858859	0.980728
58.998999	0.981041
59.139139	0.981330
59.279279	0.981640
59.419419	0.981921
59.559560	0.982189
59.699700	0.982478
59.839840	0.982743
59.979980	0.983002
60.120120	0.983266
60.260260	0.983521
60.400400	0.983769
60.540541	0.984016
60.680681	0.984251
60.820821	0.984477
60.960961	0.984717
61.101101	0.984940
61.241241	0.985157
61.381381	0.985368
61.521522	0.985574
61.661662	0.985790
61.801802	0.985992
61.941942	0.986192
62.082082	0.986385
62.222222	0.986578
62.362362	0.986770
62.502503	0.986955
62.642643	0.987142
62.782783	0.987321
62.922923	0.987495
63.063063	0.987670
63.203203	0.987841
63.343343	0.988007
63.483483	0.988170
63.623624	0.988337
63.763764	0.988487
63.903904	0.988648
64.044044	0.988804
64.184184	0.988962
64.324324	0.989114
64.464464	0.989252
64.604605	0.989393
64.744745	0.989537
64.884885	0.989675
65.025025	0.989817
65.165165	0.989949
65.305305	0.990082
65.445445	0.990213
65.585586	0.990340
65.725726	0.990467
65.865866	0.990590
66.006006	0.990713
66.146146	0.990830
66.286286	0.990948
66.426426	0.991065
66.566567	0.991178
66.706707	0.991289
66.846847	0.991400
66.986987	0.991512
67.127127	0.991619
67.267267	0.991724
67.407407	0.991829
67.547548	0.991932
67.687688	0.992036
67.827828	0.992134
67.967968	0.992232
68.108108	0.992330
68.248248	0.992426
68.388388	0.992521
68.528529	0.992614
68.668669	0.992710
68.808809	0.992802
68.948949	0.992893
69.089089	0.992980
69.229229	0.993065
69.369369	0.993151
69.509510	0.993236
69.649650	0.993321
69.789790	0.993404
69.929930	0.993486
70.070070	0.993566
70.210210	0.993647
70.350350	0.993726
70.490490	0.993805
70.630631	0.993882
70.770771	0.993956
70.910911	0.994032
71.051051	0.994106
71.191191	0.994180
71.331331	0.994253
71.471471	0.994324
71.611612	0.994395
71.751752	0.994466
71.891892	0.994535
72.032032	0.994603
72.172172	0.994669
72.312312	0.994735
72.452452	0.994801
72.592593	0.994866
72.732733	0.994929
72.872873	0.994993
73.013013	0.995054
73.153153	0.995117
73.293293	0.995177
73.433433	0.995235
73.573574	0.995295
73.713714	0.995353
73.853854	0.995409
73.993994	0.995467
74.134134	0.995524
74.274274	0.995578
74.414414	0.995633
74.554555	0.995687
74.694695	0.995740
74.834835	0.995791
74.974975	0.995843
75.115115	0.995894
75.255255	0.995943
75.395395	0.995993
75.535536	0.996041
75.675676	0.996089
75.815816	0.996138
75.955956	0.996185
76.096096	0.996231
76.236236	0.996276
76.376376	0.996321
76.516517	0.996366
76.656657	0.996410
76.796797	0.996452
76.936937	0.996495
77.077077	0.996537
77.217217	0.996579
77.357357	0.996620
77.497497	0.996660
77.637638	0.996700
77.777778	0.996740
77.917918	0.996778
78.058058	0.996817
78.198198	0.996855
78.338338	0.996892
78.478478	0.996929
78.618619	0.996965
78.758759	0.997001
78.898899	0.997037
79.039039	0.997071
79.179179	0.997106
79.319319	0.997141
79.459459	0.997174
79.599600	0.997207
79.739740	0.997240
79.879880	0.997272
80.020020	0.997305
80.160160	0.997337
80.300300	0.997368
80.440440	0.997399
80.580581	0.997429
80.720721	0.997460
80.860861	0.997489
81.001001	0.997518
81.141141	0.997548
81.281281	0.997577
81.421421	0.997605
81.561562	0.997633
81.701702	0.997660
81.841842	0.997688
81.981982	0.997714
82.122122	0.997741
82.262262	0.997768
82.402402	0.997794
82.542543	0.997819
82.682683	0.997845
82.822823	0.997870
82.962963	0.997895
83.103103	0.997919
83.243243	0.997944
83.383383	0.997968
83.523524	0.997991
83.663664	0.998015
83.803804	0.998037
83.943944	0.998059
84.084084	0.998083
84.224224	0.998105
84.364364	0.998127
84.504505	0.998149
84.644645	0.998170
84.784785	0.998191
84.924925	0.998212
85.065065	0.998233
85.205205	0.998253
85.345345	0.998273
85.485485	0.998293
85.625626	0.998313
85.765766	0.998333
85.905906	0.998352
86.046046	0.998372
86.186186	0.998391
86.326326	0.998410
86.466466	0.998429
86.606607	0.998447
86.746747	0.998465
86.886887	0.998484
87.027027	0.998502
87.167167	0.998519
87.307307	0.998536
87.447447	0.998553
87.587588	0.998571
87.727728	0.998588
87.867868	0.998605
88.008008	0.998621
88.148148	0.998637
88.288288	0.998654
88.428428	0.998670
88.568569	0.998686
88.708709	0.998701
88.848849	0.998717
88.988989	0.998732
89.129129	0.998747
89.269269	0.998762
89.409409	0.998777
89.549550	0.998791
89.689690	0.998805
89.829830	0.998820
89.969970	0.998833
90.110110	0.998847
90.250250	0.998861
90.390390	0.998874
90.530531	0.998888
90.670671	0.998901
90.810811	0.998914
90.950951	0.998927
91.091091	0.998939
91.231231	0.998952
91.371371	0.998964
91.511512	0.998976
91.651652	0.998988
91.791792	0.999000
91.931932	0.999012
92.072072	0.999024
92.212212	0.999035
92.352352	0.999047
92.492492	0.999058
92.632633	0.999069
92.772773	0.999080
92.912913	0.999090
93.053053	0.999101
93.193193	0.999112
93.333333	0.999122
93.473473	0.999132
93.613614	0.999143
93.753754	0.999153
93.893894	0.999163
94.034034	0.999172
94.174174	0.999182
94.314314	0.999192
94.454454	0.999201
94.594595	0.999211
94.734735	0.999220
94.874875	0.999229
95.015015	0.999238
95.155155	0.999248
95.295295	0.999257
95.435435	0.999266
95.575576	0.999275
95.715716	0.999283
95.855856	0.999292
95.995996	0.999301
96.136136	0.999309
96.276276	0.999317
96.416416	0.999326
96.556557	0.999334
96.696697	0.999342
96.836837	0.999350
96.976977	0.999358
97.117117	0.999366
97.257257	0.999373
97.397397	0.999381
97.537538	0.999389
97.677678	0.999396
97.817818	0.999404
97.957958	0.999411
98.098098	0.999418
98.238238	0.999425
98.378378	0.999432
98.518519	0.999439
98.658659	0.999446
98.798799	0.999453
98.938939	0.999460
99.079079	0.999467
99.219219	0.999473
99.359359	0.999480
99.499499	0.999486
99.639640	0.999493
99.779780	0.999499
99.919920	0.999505
100.060060	0.999511
100.200200	0.999517
100.340340	0.999523
100.480480	0.999529
100.620621	0.999535
100.760761	0.999541
100.900901	0.999547
101.041041	0.999552
101.181181	0.999558
101.321321	0.999563
101.461461	0.999568
101.601602	0.999574
101.741742	0.999579
101.881882	0.999584
102.022022	0.999589
102.162162	0.999594
102.302302	0.999599
102.442442	0.999604
102.582583	0.999609
102.722723	0.999614
102.862863	0.999619
103.003003	0.999623
103.143143	0.999628
103.283283	0.999632
103.423423	0.999637
103.563564	0.999641
103.703704	0.999646
103.843844	0.999650
103.983984	0.999654
104.124124	0.999658
104.264264	0.999662
104.404404	0.999666
104.544545	0.999670
104.684685	0.999674
104.824825	0.999678
104.964965	0.999682
105.105105	0.999686
105.245245	0.999690
105.385385	0.999694
105.525526	0.999697
105.665666	0.999701
105.805806	0.999705
105.945946	0.999708
106.086086	0.999712
106.226226	0.999716
106.366366	0.999719
106.506507	0.999723
106.646647	0.999726
106.786787	0.999730
106.926927	0.999733
107.067067	0.999736
107.207207	0.999740
107.347347	0.999743
107.487487	0.999746
107.627628	0.999749
107.767768	0.999752
107.907908	0.999755
108.048048	0.999758
108.188188	0.999762
108.328328	0.999765
108.468468	0.999768
108.608609	0.999770
108.748749	0.999773
108.888889	0.999776
109.029029	0.999779
109.169169	0.999782
109.309309	0.999785
109.449449	0.999787
109.589590	0.999790
109.729730	0.999793
109.869870	0.999795
110.010010	0.999798
110.150150	0.999800
110.290290	0.999803
110.430430	0.999805
110.570571	0.999808
110.710711	0.999810
110.850851	0.999812
110.990991	0.999815
111.131131	0.999817
111.271271	0.999819
111.411411	0.999822
111.551552	0.999824
111.691692	0.999826
111.831832	0.999828
111.971972	0.999830
112.112112	0.999832
112.252252	0.999835
112.392392	0.999837
112.532533	0.999839
112.672673	0.999841
112.812813	0.999843
112.952953	0.999845
113.093093	0.999847
113.233233	0.999848
113.373373	0.999850
113.513514	0.999852
113.653654	0.999854
113.793794	0.999856
113.933934	0.999858
114.074074	0.999860
114.214214	0.999861
114.354354	0.999863
114.494494	0.999865
114.634635	0.999866
114.774775	0.999868
114.914915	0.999870
115.055055	0.999871
115.195195	0.999873
115.335335	0.999875
115.475475	0.999876
115.615616	0.999878
115.755756	0.999879
115.895896	0.999881
116.036036	0.999882
116.176176	0.999884
116.316316	0.999885
116.456456	0.999887
116.596597	0.999888
116.736737	0.999890
116.876877	0.999891
117.017017	0.999892
117.157157	0.999894
117.297297	0.999895
117.437437	0.999896
117.577578	0.999898
117.717718	0.999899
117.857858	0.999900
117.997998	0.999901
118.138138	0.999903
118.278278	0.999904
118.418418	0.999905
118.558559	0.999906
118.698699	0.999907
118.838839	0.999908
118.978979	0.999910
119.119119	0.999911
119.259259	0.999912
119.399399	0.999913
119.539540	0.999914
119.679680	0.999915
119.819820	0.999916
119.959960	0.999917
120.100100	0.999918
120.240240	0.999919
120.380380	0.999920
120.520521	0.999921
120.660661	0.999922
120.800801	0.999923
120.940941	0.999924
121.081081	0.999925
121.221221	0.999926
121.361361	0.999927
121.501502	0.999928
121.641642	0.999929
121.781782	0.999930
121.921922	0.999930
122.062062	0.999931
122.202202	0.999932
122.342342	0.999933
122.482482	0.999934
122.622623	0.999935
122.762763	0.999935
122.902903	0.999936
123.043043	0.999937
123.183183	0.999938
123.323323	0.999939
123.463463	0.999939
123.603604	0.999940
123.743744	0.999941
123.883884	0.999941
124.024024	0.999942
124.164164	0.999943
124.304304	0.999943
124.444444	0.999944
124.584585	0.999945
124.724725	0.999945
124.864865	0.999946
125.005005	0.999946
125.145145	0.999947
125.285285	0.999948
125.425425	0.999948
125.565566	0.999949
125.705706	0.999949
125.845846	0.999950
125.985986	0.999950
126.126126	0.999951
126.266266	0.999951
126.406406	0.999952
126.546547	0.999952
126.686687	0.999953
126.826827	0.999953
126.966967	0.999954
127.107107	0.999954
127.247247	0.999955
127.387387	0.999955
127.527528	0.999956
127.667668	0.999956
127.807808	0.999956
127.947948	0.999957
128.088088	0.999957
128.228228	0.999958
128.368368	0.999958
128.508509	0.999958
128.648649	0.999959
128.788789	0.999959
128.928929	0.999960
129.069069	0.999960
129.209209	0.999960
129.349349	0.999961
129.489489	0.999961
129.629630	0.999961
129.769770	0.999962
129.909910	0.999962
130.050050	0.999962
130.190190	0.999963
130.330330	0.999963
130.470470	0.999963
130.610611	0.999964
130.750751	0.999964
130.890891	0.999964
131.031031	0.999964
131.171171	0.999965
131.311311	0.999965
131.451451	0.999965
131.591592	0.999966
131.731732	0.999966
131.871872	0.999966
132.012012	0.999966
132.152152	0.999967
132.292292	0.999967
132.432432	0.999967
132.572573	0.999967
132.712713	0.999968
132.852853	0.999968
132.992993	0.999968
133.133133	0.999968
133.273273	0.999968
133.413413	0.999969
133.553554	0.999969
133.693694	0.999969
133.833834	0.999969
133.973974	0.999970
134.114114	0.999970
134.254254	0.999970
134.394394	0.999970
134.534535	0.999970
134.674675	0.999970
134.814815	0.999971
134.954955	0.999971
135.095095	0.999971
135.235235	0.999971
135.375375	0.999971
135.515516	0.999972
135.655656	0.999972
135.795796	0.999972
135.935936	0.999972
136.076076	0.999972
136.216216	0.999972
136.356356	0.999973
136.496496	0.999973
136.636637	0.999973
136.776777	0.999973
136.916917	0.999973
137.057057	0.999973
137.197197	0.999973
137.337337	0.999974
137.477477	0.999974
137.617618	0.999974
137.757758	0.999974
137.897898	0.999974
138.038038	0.999974
138.178178	0.999974
138.318318	0.999975
138.458458	0.999975
138.598599	0.999975
138.738739	0.999975
138.878879	0.999975
139.019019	0.999975
139.159159	0.999975
139.299299	0.999975
139.439439	0.999976
139.579580	0.999976
139.719720	0.999976
139.859860	0.999976
140.000000	0.999976
